Feb. 28, 2010   18:16:55
Cyclic Voltammetry
File: exp1
Data Source:  Experiment
Instrument Model:  CHI1220
Header: 
Note: 

Init E (V) = -0.05
High E (V) = 0.45
Low E (V) = -0.05
Init P/N = P
Scan Rate (V/s) = 0.05
Segment = 2
Sample Interval (V) = 0.001
Quiet Time (sec) = 2
Sensitivity (A/V) = 1e-5

Results:

Channel 1:
Segment 1:
Ep = 0.255V
ip = -4.028e-7A
Ah = -4.707e-7C

Segment 2:

Potential/V, Current/A

-0.049, 2.068e-8
-0.048, -1.192e-7
-0.047, -1.270e-7
-0.046, -1.328e-7
-0.045, -1.339e-7
-0.044, -1.377e-7
-0.043, -1.382e-7
-0.042, -1.413e-7
-0.041, -1.413e-7
-0.040, -1.433e-7
-0.039, -1.437e-7
-0.038, -1.453e-7
-0.037, -1.443e-7
-0.036, -1.452e-7
-0.035, -1.491e-7
-0.034, -1.478e-7
-0.033, -1.485e-7
-0.032, -1.479e-7
-0.031, -1.487e-7
-0.030, -1.481e-7
-0.029, -1.518e-7
-0.028, -1.528e-7
-0.027, -1.525e-7
-0.026, -1.507e-7
-0.025, -1.496e-7
-0.024, -1.533e-7
-0.023, -1.492e-7
-0.022, -1.557e-7
-0.021, -1.508e-7
-0.020, -1.523e-7
-0.019, -1.535e-7
-0.018, -1.559e-7
-0.017, -1.539e-7
-0.016, -1.529e-7
-0.015, -1.537e-7
-0.014, -1.545e-7
-0.013, -1.563e-7
-0.012, -1.549e-7
-0.011, -1.564e-7
-0.010, -1.529e-7
-0.009, -1.535e-7
-0.008, -1.556e-7
-0.007, -1.573e-7
-0.006, -1.570e-7
-0.005, -1.540e-7
-0.004, -1.560e-7
-0.003, -1.576e-7
-0.002, -1.570e-7
-0.001, -1.600e-7
-0.000, -1.558e-7
0.001, -1.331e-7
0.002, -1.497e-7
0.003, -1.530e-7
0.004, -1.551e-7
0.005, -1.530e-7
0.006, -1.534e-7
0.007, -1.566e-7
0.008, -1.565e-7
0.009, -1.540e-7
0.010, -1.570e-7
0.011, -1.547e-7
0.012, -1.568e-7
0.013, -1.580e-7
0.014, -1.557e-7
0.015, -1.532e-7
0.016, -1.593e-7
0.017, -1.567e-7
0.018, -1.558e-7
0.019, -1.566e-7
0.020, -1.575e-7
0.021, -1.567e-7
0.022, -1.559e-7
0.023, -1.579e-7
0.024, -1.563e-7
0.025, -1.564e-7
0.026, -1.597e-7
0.027, -1.559e-7
0.028, -1.583e-7
0.029, -1.555e-7
0.030, -1.569e-7
0.031, -1.593e-7
0.032, -1.531e-7
0.033, -1.603e-7
0.034, -1.586e-7
0.035, -1.548e-7
0.036, -1.552e-7
0.037, -1.555e-7
0.038, -1.563e-7
0.039, -1.558e-7
0.040, -1.560e-7
0.041, -1.563e-7
0.042, -1.581e-7
0.043, -1.534e-7
0.044, -1.553e-7
0.045, -1.569e-7
0.046, -1.538e-7
0.047, -1.589e-7
0.048, -1.553e-7
0.049, -1.594e-7
0.050, -1.570e-7
0.051, -1.563e-7
0.052, -1.565e-7
0.053, -1.570e-7
0.054, -1.568e-7
0.055, -1.590e-7
0.056, -1.576e-7
0.057, -1.598e-7
0.058, -1.575e-7
0.059, -1.570e-7
0.060, -1.585e-7
0.061, -1.589e-7
0.062, -1.582e-7
0.063, -1.588e-7
0.064, -1.584e-7
0.065, -1.356e-7
0.066, -1.535e-7
0.067, -1.571e-7
0.068, -1.571e-7
0.069, -1.572e-7
0.070, -1.543e-7
0.071, -1.554e-7
0.072, -1.593e-7
0.073, -1.581e-7
0.074, -1.574e-7
0.075, -1.588e-7
0.076, -1.573e-7
0.077, -1.568e-7
0.078, -1.609e-7
0.079, -1.581e-7
0.080, -1.546e-7
0.081, -1.584e-7
0.082, -1.551e-7
0.083, -1.598e-7
0.084, -1.579e-7
0.085, -1.578e-7
0.086, -1.609e-7
0.087, -1.572e-7
0.088, -1.568e-7
0.089, -1.611e-7
0.090, -1.585e-7
0.091, -1.562e-7
0.092, -1.581e-7
0.093, -1.585e-7
0.094, -1.593e-7
0.095, -1.578e-7
0.096, -1.607e-7
0.097, -1.600e-7
0.098, -1.569e-7
0.099, -1.590e-7
0.100, -1.607e-7
0.101, -1.584e-7
0.102, -1.594e-7
0.103, -1.622e-7
0.104, -1.606e-7
0.105, -1.594e-7
0.106, -1.593e-7
0.107, -1.591e-7
0.108, -1.623e-7
0.109, -1.601e-7
0.110, -1.611e-7
0.111, -1.619e-7
0.112, -1.592e-7
0.113, -1.623e-7
0.114, -1.605e-7
0.115, -1.612e-7
0.116, -1.616e-7
0.117, -1.620e-7
0.118, -1.625e-7
0.119, -1.595e-7
0.120, -1.663e-7
0.121, -1.612e-7
0.122, -1.621e-7
0.123, -1.651e-7
0.124, -1.645e-7
0.125, -1.649e-7
0.126, -1.661e-7
0.127, -1.670e-7
0.128, -1.678e-7
0.129, -1.425e-7
0.130, -1.616e-7
0.131, -1.638e-7
0.132, -1.641e-7
0.133, -1.680e-7
0.134, -1.647e-7
0.135, -1.687e-7
0.136, -1.668e-7
0.137, -1.681e-7
0.138, -1.683e-7
0.139, -1.698e-7
0.140, -1.698e-7
0.141, -1.712e-7
0.142, -1.735e-7
0.143, -1.735e-7
0.144, -1.722e-7
0.145, -1.774e-7
0.146, -1.753e-7
0.147, -1.767e-7
0.148, -1.787e-7
0.149, -1.815e-7
0.150, -1.798e-7
0.151, -1.804e-7
0.152, -1.865e-7
0.153, -1.844e-7
0.154, -1.836e-7
0.155, -1.893e-7
0.156, -1.867e-7
0.157, -1.929e-7
0.158, -1.901e-7
0.159, -1.903e-7
0.160, -1.964e-7
0.161, -1.980e-7
0.162, -1.990e-7
0.163, -2.026e-7
0.164, -2.035e-7
0.165, -2.034e-7
0.166, -2.087e-7
0.167, -2.089e-7
0.168, -2.151e-7
0.169, -2.154e-7
0.170, -2.192e-7
0.171, -2.214e-7
0.172, -2.258e-7
0.173, -2.307e-7
0.174, -2.320e-7
0.175, -2.338e-7
0.176, -2.401e-7
0.177, -2.456e-7
0.178, -2.468e-7
0.179, -2.509e-7
0.180, -2.557e-7
0.181, -2.627e-7
0.182, -2.640e-7
0.183, -2.694e-7
0.184, -2.732e-7
0.185, -2.818e-7
0.186, -2.856e-7
0.187, -2.899e-7
0.188, -2.971e-7
0.189, -3.022e-7
0.190, -3.091e-7
0.191, -3.126e-7
0.192, -3.214e-7
0.193, -3.048e-7
0.194, -3.250e-7
0.195, -3.321e-7
0.196, -3.382e-7
0.197, -3.431e-7
0.198, -3.527e-7
0.199, -3.551e-7
0.200, -3.641e-7
0.201, -3.720e-7
0.202, -3.745e-7
0.203, -3.844e-7
0.204, -3.870e-7
0.205, -3.955e-7
0.206, -4.006e-7
0.207, -4.091e-7
0.208, -4.149e-7
0.209, -4.249e-7
0.210, -4.250e-7
0.211, -4.326e-7
0.212, -4.377e-7
0.213, -4.435e-7
0.214, -4.497e-7
0.215, -4.551e-7
0.216, -4.605e-7
0.217, -4.667e-7
0.218, -4.745e-7
0.219, -4.740e-7
0.220, -4.764e-7
0.221, -4.848e-7
0.222, -4.891e-7
0.223, -4.974e-7
0.224, -4.956e-7
0.225, -5.009e-7
0.226, -5.019e-7
0.227, -5.089e-7
0.228, -5.120e-7
0.229, -5.143e-7
0.230, -5.199e-7
0.231, -5.217e-7
0.232, -5.249e-7
0.233, -5.277e-7
0.234, -5.279e-7
0.235, -5.336e-7
0.236, -5.320e-7
0.237, -5.391e-7
0.238, -5.424e-7
0.239, -5.389e-7
0.240, -5.411e-7
0.241, -5.438e-7
0.242, -5.455e-7
0.243, -5.453e-7
0.244, -5.459e-7
0.245, -5.483e-7
0.246, -5.488e-7
0.247, -5.492e-7
0.248, -5.566e-7
0.249, -5.495e-7
0.250, -5.550e-7
0.251, -5.556e-7
0.252, -5.572e-7
0.253, -5.583e-7
0.254, -5.590e-7
0.255, -5.612e-7
0.256, -5.596e-7
0.257, -5.321e-7
0.258, -5.562e-7
0.259, -5.526e-7
0.260, -5.565e-7
0.261, -5.547e-7
0.262, -5.578e-7
0.263, -5.572e-7
0.264, -5.584e-7
0.265, -5.567e-7
0.266, -5.598e-7
0.267, -5.563e-7
0.268, -5.581e-7
0.269, -5.558e-7
0.270, -5.597e-7
0.271, -5.577e-7
0.272, -5.573e-7
0.273, -5.575e-7
0.274, -5.558e-7
0.275, -5.572e-7
0.276, -5.583e-7
0.277, -5.556e-7
0.278, -5.557e-7
0.279, -5.543e-7
0.280, -5.531e-7
0.281, -5.528e-7
0.282, -5.521e-7
0.283, -5.529e-7
0.284, -5.525e-7
0.285, -5.523e-7
0.286, -5.517e-7
0.287, -5.526e-7
0.288, -5.490e-7
0.289, -5.502e-7
0.290, -5.486e-7
0.291, -5.463e-7
0.292, -5.476e-7
0.293, -5.462e-7
0.294, -5.437e-7
0.295, -5.449e-7
0.296, -5.453e-7
0.297, -5.444e-7
0.298, -5.438e-7
0.299, -5.423e-7
0.300, -5.418e-7
0.301, -5.418e-7
0.302, -5.440e-7
0.303, -5.408e-7
0.304, -5.409e-7
0.305, -5.395e-7
0.306, -5.392e-7
0.307, -5.400e-7
0.308, -5.385e-7
0.309, -5.377e-7
0.310, -5.374e-7
0.311, -5.353e-7
0.312, -5.372e-7
0.313, -5.378e-7
0.314, -5.374e-7
0.315, -5.353e-7
0.316, -5.393e-7
0.317, -5.345e-7
0.318, -5.376e-7
0.319, -5.340e-7
0.320, -5.309e-7
0.321, -5.078e-7
0.322, -5.235e-7
0.323, -5.278e-7
0.324, -5.234e-7
0.325, -5.218e-7
0.326, -5.215e-7
0.327, -5.200e-7
0.328, -5.249e-7
0.329, -5.217e-7
0.330, -5.221e-7
0.331, -5.219e-7
0.332, -5.221e-7
0.333, -5.244e-7
0.334, -5.118e-7
0.335, -5.005e-7
0.336, -5.022e-7
0.337, -5.049e-7
0.338, -5.003e-7
0.339, -5.028e-7
0.340, -5.019e-7
0.341, -5.041e-7
0.342, -5.020e-7
0.343, -4.966e-7
0.344, -4.998e-7
0.345, -4.961e-7
0.346, -4.964e-7
0.347, -4.987e-7
0.348, -4.984e-7
0.349, -4.987e-7
0.350, -4.939e-7
0.351, -4.984e-7
0.352, -4.984e-7
0.353, -4.990e-7
0.354, -4.958e-7
0.355, -4.985e-7
0.356, -4.990e-7
0.357, -4.988e-7
0.358, -4.969e-7
0.359, -5.013e-7
0.360, -4.977e-7
0.361, -4.999e-7
0.362, -5.001e-7
0.363, -5.002e-7
0.364, -4.995e-7
0.365, -4.992e-7
0.366, -5.009e-7
0.367, -5.011e-7
0.368, -5.012e-7
0.369, -5.020e-7
0.370, -5.002e-7
0.371, -5.003e-7
0.372, -5.013e-7
0.373, -5.056e-7
0.374, -5.015e-7
0.375, -5.045e-7
0.376, -5.039e-7
0.377, -5.033e-7
0.378, -5.046e-7
0.379, -5.053e-7
0.380, -5.049e-7
0.381, -5.026e-7
0.382, -5.036e-7
0.383, -5.061e-7
0.384, -5.056e-7
0.385, -4.750e-7
0.386, -4.964e-7
0.387, -4.999e-7
0.388, -5.012e-7
0.389, -4.979e-7
0.390, -4.976e-7
0.391, -5.026e-7
0.392, -5.028e-7
0.393, -5.052e-7
0.394, -5.044e-7
0.395, -5.051e-7
0.396, -5.031e-7
0.397, -5.086e-7
0.398, -5.064e-7
0.399, -5.085e-7
0.400, -5.048e-7
0.401, -5.080e-7
0.402, -5.105e-7
0.403, -5.111e-7
0.404, -5.113e-7
0.405, -5.109e-7
0.406, -5.129e-7
0.407, -5.134e-7
0.408, -5.168e-7
0.409, -5.126e-7
0.410, -5.164e-7
0.411, -5.174e-7
0.412, -5.196e-7
0.413, -5.175e-7
0.414, -5.176e-7
0.415, -5.204e-7
0.416, -5.197e-7
0.417, -5.236e-7
0.418, -5.205e-7
0.419, -5.261e-7
0.420, -5.259e-7
0.421, -5.261e-7
0.422, -5.238e-7
0.423, -5.281e-7
0.424, -5.258e-7
0.425, -5.298e-7
0.426, -5.308e-7
0.427, -5.291e-7
0.428, -5.359e-7
0.429, -5.298e-7
0.430, -5.315e-7
0.431, -5.368e-7
0.432, -5.327e-7
0.433, -5.371e-7
0.434, -5.399e-7
0.435, -5.410e-7
0.436, -5.405e-7
0.437, -5.457e-7
0.438, -5.445e-7
0.439, -5.497e-7
0.440, -5.494e-7
0.441, -5.507e-7
0.442, -5.495e-7
0.443, -5.530e-7
0.444, -5.568e-7
0.445, -5.561e-7
0.446, -5.577e-7
0.447, -5.624e-7
0.448, -5.648e-7
0.449, -5.400e-7
0.450, -5.590e-7
0.449, -5.625e-7
0.448, -2.688e-7
0.447, -2.441e-7
0.446, -2.476e-7
0.445, -2.055e-7
0.444, -1.975e-7
0.443, -1.847e-7
0.442, -1.776e-7
0.441, -1.683e-7
0.440, -1.604e-7
0.439, -1.527e-7
0.438, -1.444e-7
0.437, -1.379e-7
0.436, -1.294e-7
0.435, -1.246e-7
0.434, -1.193e-7
0.433, -1.150e-7
0.432, -1.088e-7
0.431, -1.039e-7
0.430, -1.006e-7
0.429, -1.006e-7
0.428, -9.063e-8
0.427, -9.206e-8
0.426, -8.709e-8
0.425, -8.543e-8
0.424, -8.092e-8
0.423, -7.695e-8
0.422, -7.432e-8
0.421, -6.871e-8
0.420, -6.648e-8
0.419, -6.591e-8
0.418, -6.289e-8
0.417, -6.112e-8
0.416, -5.909e-8
0.415, -5.549e-8
0.414, -5.245e-8
0.413, -5.080e-8
0.412, -4.966e-8
0.411, -4.386e-8
0.410, -4.110e-8
0.409, -4.207e-8
0.408, -3.855e-8
0.407, -4.098e-8
0.406, -3.337e-8
0.405, -3.505e-8
0.404, -2.882e-8
0.403, -3.037e-8
0.402, -2.995e-8
0.401, -2.592e-8
0.400, -2.742e-8
0.399, -2.601e-8
0.398, -2.182e-8
0.397, -2.079e-8
0.396, -1.846e-8
0.395, -2.131e-8
0.394, -1.802e-8
0.393, -1.524e-8
0.392, -1.333e-8
0.391, -1.398e-8
0.390, -1.226e-8
0.389, -1.277e-8
0.388, -8.991e-9
0.387, -1.072e-8
0.386, -8.436e-9
0.385, -7.758e-9
0.384, -6.348e-9
0.383, -4.473e-9
0.382, -2.856e-8
0.381, 3.911e-9
0.380, 6.907e-9
0.379, 4.353e-9
0.378, 4.485e-9
0.377, 8.042e-9
0.376, 8.122e-9
0.375, 4.598e-9
0.374, 9.768e-9
0.373, 1.107e-8
0.372, 1.069e-8
0.371, 1.372e-8
0.370, 1.415e-8
0.369, 1.422e-8
0.368, 1.315e-8
0.367, 1.540e-8
0.366, 1.718e-8
0.365, 1.548e-8
0.364, 1.647e-8
0.363, 1.815e-8
0.362, 1.752e-8
0.361, 2.198e-8
0.360, 2.382e-8
0.359, 2.288e-8
0.358, 2.109e-8
0.357, 2.255e-8
0.356, 2.292e-8
0.355, 2.733e-8
0.354, 2.528e-8
0.353, 2.216e-8
0.352, 2.789e-8
0.351, 2.598e-8
0.350, 2.923e-8
0.349, 2.937e-8
0.348, 2.853e-8
0.347, 3.129e-8
0.346, 3.130e-8
0.345, 3.331e-8
0.344, 3.145e-8
0.343, 3.267e-8
0.342, 3.398e-8
0.341, 3.294e-8
0.340, 3.378e-8
0.339, 3.444e-8
0.338, 3.654e-8
0.337, 3.526e-8
0.336, 3.721e-8
0.335, 3.691e-8
0.334, 4.112e-8
0.333, 3.763e-8
0.332, 3.927e-8
0.331, 3.881e-8
0.330, 3.950e-8
0.329, 4.089e-8
0.328, 4.208e-8
0.327, 4.058e-8
0.326, 4.242e-8
0.325, 4.221e-8
0.324, 4.335e-8
0.323, 4.025e-8
0.322, 4.382e-8
0.321, 4.491e-8
0.320, 3.929e-8
0.319, 4.571e-8
0.318, 2.210e-8
0.317, 4.809e-8
0.316, 4.638e-8
0.315, 5.116e-8
0.314, 5.081e-8
0.313, 4.607e-8
0.312, 5.232e-8
0.311, 4.937e-8
0.310, 5.108e-8
0.309, 4.873e-8
0.308, 5.189e-8
0.307, 5.048e-8
0.306, 5.359e-8
0.305, 4.952e-8
0.304, 5.251e-8
0.303, 5.440e-8
0.302, 5.477e-8
0.301, 4.989e-8
0.300, 5.146e-8
0.299, 5.504e-8
0.298, 5.603e-8
0.297, 5.559e-8
0.296, 5.664e-8
0.295, 5.599e-8
0.294, 5.350e-8
0.293, 5.850e-8
0.292, 6.202e-8
0.291, 5.851e-8
0.290, 5.853e-8
0.289, 5.747e-8
0.288, 5.783e-8
0.287, 6.130e-8
0.286, 6.319e-8
0.285, 6.077e-8
0.284, 6.410e-8
0.283, 6.479e-8
0.282, 6.356e-8
0.281, 6.033e-8
0.280, 6.761e-8
0.279, 6.637e-8
0.278, 6.648e-8
0.277, 6.726e-8
0.276, 6.638e-8
0.275, 6.572e-8
0.274, 6.927e-8
0.273, 7.062e-8
0.272, 6.954e-8
0.271, 6.919e-8
0.270, 7.269e-8
0.269, 6.922e-8
0.268, 7.097e-8
0.267, 7.272e-8
0.266, 7.273e-8
0.265, 7.428e-8
0.264, 7.200e-8
0.263, 7.476e-8
0.262, 7.537e-8
0.261, 7.575e-8
0.260, 7.618e-8
0.259, 7.726e-8
0.258, 7.570e-8
0.257, 7.748e-8
0.256, 7.882e-8
0.255, 7.549e-8
0.254, 5.919e-8
0.253, 7.930e-8
0.252, 8.193e-8
0.251, 8.130e-8
0.250, 8.453e-8
0.249, 8.359e-8
0.248, 8.360e-8
0.247, 8.592e-8
0.246, 8.524e-8
0.245, 8.890e-8
0.244, 8.741e-8
0.243, 8.878e-8
0.242, 8.831e-8
0.241, 9.033e-8
0.240, 8.988e-8
0.239, 9.205e-8
0.238, 9.112e-8
0.237, 9.430e-8
0.236, 9.303e-8
0.235, 9.487e-8
0.234, 9.484e-8
0.233, 9.778e-8
0.232, 9.755e-8
0.231, 9.644e-8
0.230, 9.843e-8
0.229, 1.000e-7
0.228, 9.927e-8
0.227, 1.041e-7
0.226, 1.027e-7
0.225, 1.033e-7
0.224, 1.042e-7
0.223, 1.067e-7
0.222, 1.076e-7
0.221, 1.087e-7
0.220, 1.094e-7
0.219, 1.092e-7
0.218, 1.134e-7
0.217, 1.112e-7
0.216, 1.121e-7
0.215, 1.141e-7
0.214, 1.141e-7
0.213, 1.198e-7
0.212, 1.156e-7
0.211, 1.217e-7
0.210, 1.190e-7
0.209, 1.216e-7
0.208, 1.211e-7
0.207, 1.226e-7
0.206, 1.264e-7
0.205, 1.258e-7
0.204, 1.259e-7
0.203, 1.274e-7
0.202, 1.303e-7
0.201, 1.285e-7
0.200, 1.297e-7
0.199, 1.331e-7
0.198, 1.332e-7
0.197, 1.347e-7
0.196, 1.341e-7
0.195, 1.332e-7
0.194, 1.348e-7
0.193, 1.384e-7
0.192, 1.360e-7
0.191, 1.392e-7
0.190, 1.214e-7
0.189, 1.443e-7
0.188, 1.449e-7
0.187, 1.449e-7
0.186, 1.469e-7
0.185, 1.459e-7
0.184, 1.468e-7
0.183, 1.499e-7
0.182, 1.510e-7
0.181, 1.492e-7
0.180, 1.528e-7
0.179, 1.509e-7
0.178, 1.521e-7
0.177, 1.505e-7
0.176, 1.567e-7
0.175, 1.520e-7
0.174, 1.582e-7
0.173, 1.538e-7
0.172, 1.582e-7
0.171, 1.587e-7
0.170, 1.573e-7
0.169, 1.580e-7
0.168, 1.597e-7
0.167, 1.586e-7
0.166, 1.591e-7
0.165, 1.649e-7
0.164, 1.589e-7
0.163, 1.632e-7
0.162, 1.581e-7
0.161, 1.618e-7
0.160, 1.648e-7
0.159, 1.631e-7
0.158, 1.636e-7
0.157, 1.634e-7
0.156, 1.623e-7
0.155, 1.639e-7
0.154, 1.680e-7
0.153, 1.664e-7
0.152, 1.648e-7
0.151, 1.655e-7
0.150, 1.647e-7
0.149, 1.650e-7
0.148, 1.695e-7
0.147, 1.666e-7
0.146, 1.697e-7
0.145, 1.673e-7
0.144, 1.688e-7
0.143, 1.698e-7
0.142, 1.686e-7
0.141, 1.703e-7
0.140, 1.676e-7
0.139, 1.699e-7
0.138, 1.694e-7
0.137, 1.691e-7
0.136, 1.698e-7
0.135, 1.700e-7
0.134, 1.703e-7
0.133, 1.666e-7
0.132, 1.697e-7
0.131, 1.708e-7
0.130, 1.673e-7
0.129, 1.690e-7
0.128, 1.701e-7
0.127, 1.688e-7
0.126, 1.508e-7
0.125, 1.713e-7
0.124, 1.707e-7
0.123, 1.737e-7
0.122, 1.731e-7
0.121, 1.721e-7
0.120, 1.742e-7
0.119, 1.729e-7
0.118, 1.716e-7
0.117, 1.751e-7
0.116, 1.697e-7
0.115, 1.712e-7
0.114, 1.756e-7
0.113, 1.754e-7
0.112, 1.723e-7
0.111, 1.745e-7
0.110, 1.738e-7
0.109, 1.759e-7
0.108, 1.765e-7
0.107, 1.721e-7
0.106, 1.770e-7
0.105, 1.758e-7
0.104, 1.781e-7
0.103, 1.727e-7
0.102, 1.727e-7
0.101, 1.769e-7
0.100, 1.744e-7
0.099, 1.772e-7
0.098, 1.760e-7
0.097, 1.754e-7
0.096, 1.776e-7
0.095, 1.709e-7
0.094, 1.798e-7
0.093, 1.759e-7
0.092, 1.767e-7
0.091, 1.792e-7
0.090, 1.772e-7
0.089, 1.768e-7
0.088, 1.782e-7
0.087, 1.811e-7
0.086, 1.772e-7
0.085, 1.809e-7
0.084, 1.789e-7
0.083, 1.789e-7
0.082, 1.792e-7
0.081, 1.790e-7
0.080, 1.811e-7
0.079, 1.805e-7
0.078, 1.800e-7
0.077, 1.806e-7
0.076, 1.803e-7
0.075, 1.806e-7
0.074, 1.815e-7
0.073, 1.830e-7
0.072, 1.794e-7
0.071, 1.826e-7
0.070, 1.803e-7
0.069, 1.838e-7
0.068, 1.796e-7
0.067, 1.829e-7
0.066, 1.809e-7
0.065, 1.790e-7
0.064, 1.835e-7
0.063, 1.825e-7
0.062, 1.638e-7
0.061, 1.832e-7
0.060, 1.850e-7
0.059, 1.821e-7
0.058, 1.846e-7
0.057, 1.856e-7
0.056, 1.837e-7
0.055, 1.869e-7
0.054, 1.864e-7
0.053, 1.865e-7
0.052, 1.850e-7
0.051, 1.848e-7
0.050, 1.850e-7
0.049, 1.882e-7
0.048, 1.850e-7
0.047, 1.863e-7
0.046, 1.886e-7
0.045, 1.877e-7
0.044, 1.885e-7
0.043, 1.869e-7
0.042, 1.873e-7
0.041, 1.887e-7
0.040, 1.895e-7
0.039, 1.895e-7
0.038, 1.880e-7
0.037, 1.881e-7
0.036, 1.907e-7
0.035, 1.903e-7
0.034, 1.901e-7
0.033, 1.900e-7
0.032, 1.913e-7
0.031, 1.903e-7
0.030, 1.936e-7
0.029, 1.931e-7
0.028, 1.916e-7
0.027, 1.949e-7
0.026, 1.934e-7
0.025, 1.936e-7
0.024, 1.949e-7
0.023, 1.941e-7
0.022, 1.933e-7
0.021, 1.928e-7
0.020, 1.992e-7
0.019, 1.956e-7
0.018, 1.971e-7
0.017, 1.973e-7
0.016, 1.951e-7
0.015, 1.947e-7
0.014, 2.002e-7
0.013, 1.952e-7
0.012, 1.978e-7
0.011, 1.972e-7
0.010, 1.962e-7
0.009, 1.984e-7
0.008, 2.002e-7
0.007, 1.989e-7
0.006, 1.978e-7
0.005, 1.964e-7
0.004, 2.012e-7
0.003, 1.991e-7
0.002, 1.980e-7
0.001, 1.992e-7
0.000, 1.967e-7
-0.001, 2.007e-7
-0.002, 1.774e-7
-0.003, 2.032e-7
-0.004, 2.019e-7
-0.005, 2.036e-7
-0.006, 2.033e-7
-0.007, 2.041e-7
-0.008, 2.050e-7
-0.009, 2.009e-7
-0.010, 2.068e-7
-0.011, 2.029e-7
-0.012, 2.057e-7
-0.013, 2.067e-7
-0.014, 2.074e-7
-0.015, 2.071e-7
-0.016, 2.061e-7
-0.017, 2.062e-7
-0.018, 2.080e-7
-0.019, 2.094e-7
-0.020, 2.083e-7
-0.021, 2.063e-7
-0.022, 2.107e-7
-0.023, 2.091e-7
-0.024, 2.094e-7
-0.025, 2.089e-7
-0.026, 2.108e-7
-0.027, 2.122e-7
-0.028, 2.082e-7
-0.029, 2.134e-7
-0.030, 2.106e-7
-0.031, 2.147e-7
-0.032, 2.090e-7
-0.033, 2.152e-7
-0.034, 2.168e-7
-0.035, 2.104e-7
-0.036, 2.136e-7
-0.037, 2.177e-7
-0.038, 2.164e-7
-0.039, 2.133e-7
-0.040, 2.148e-7
-0.041, 2.177e-7
-0.042, 2.185e-7
-0.043, 2.190e-7
-0.044, 2.166e-7
-0.045, 2.173e-7
-0.046, 2.209e-7
-0.047, 2.169e-7
-0.048, 2.232e-7
-0.049, 2.154e-7
-0.050, 2.249e-7
