Feb. 16, 2010   18:36:41
Cyclic Voltammetry
File: 0.1
Data Source:  Experiment
Instrument Model:  CHI1220
Header: 0.1mM 0.1 V/s
Note: 0.1mM 0.1 V/s

Init E (V) = -0.1
High E (V) = 0.5
Low E (V) = -0.1
Init P/N = P
Scan Rate (V/s) = 0.1
Segment = 2
Sample Interval (V) = 0.001
Quiet Time (sec) = 2
Sensitivity (A/V) = 1e-5

Results:

Channel 1:
Segment 1:
Ep = 0.384V
ip = -7.278e-7A
Ah = -6.076e-7C

Segment 2:

Potential/V, Current/A

-0.099, 3.211e-7
-0.098, 2.638e-7
-0.097, 2.484e-7
-0.096, 2.331e-7
-0.095, 2.183e-7
-0.094, 2.068e-7
-0.093, 1.941e-7
-0.092, 1.861e-7
-0.091, 1.749e-7
-0.090, 1.650e-7
-0.089, 1.581e-7
-0.088, 1.492e-7
-0.087, 1.426e-7
-0.086, 1.355e-7
-0.085, 1.277e-7
-0.084, 1.216e-7
-0.083, 1.150e-7
-0.082, 1.070e-7
-0.081, 1.030e-7
-0.080, 9.558e-8
-0.079, 8.942e-8
-0.078, 8.386e-8
-0.077, 7.988e-8
-0.076, 7.319e-8
-0.075, 6.704e-8
-0.074, 6.215e-8
-0.073, 5.782e-8
-0.072, 5.068e-8
-0.071, 4.688e-8
-0.070, 4.081e-8
-0.069, 3.707e-8
-0.068, 3.104e-8
-0.067, 2.771e-8
-0.066, 2.208e-8
-0.065, 1.771e-8
-0.064, 1.362e-8
-0.063, 2.124e-8
-0.062, 1.186e-8
-0.061, 6.964e-9
-0.060, 1.113e-9
-0.059, -2.080e-9
-0.058, -5.485e-9
-0.057, -1.060e-8
-0.056, -1.306e-8
-0.055, -1.825e-8
-0.054, -2.283e-8
-0.053, -2.620e-8
-0.052, -2.817e-8
-0.051, -3.172e-8
-0.050, -3.518e-8
-0.049, -3.774e-8
-0.048, -4.088e-8
-0.047, -4.706e-8
-0.046, -4.845e-8
-0.045, -4.963e-8
-0.044, -5.388e-8
-0.043, -5.611e-8
-0.042, -6.002e-8
-0.041, -6.120e-8
-0.040, -6.521e-8
-0.039, -6.881e-8
-0.038, -7.137e-8
-0.037, -7.370e-8
-0.036, -7.502e-8
-0.035, -7.725e-8
-0.034, -7.983e-8
-0.033, -8.330e-8
-0.032, -8.584e-8
-0.031, -8.837e-8
-0.030, -8.929e-8
-0.029, -9.195e-8
-0.028, -9.434e-8
-0.027, -9.606e-8
-0.026, -9.794e-8
-0.025, -1.010e-7
-0.024, -1.015e-7
-0.023, -1.039e-7
-0.022, -1.047e-7
-0.021, -1.081e-7
-0.020, -1.091e-7
-0.019, -1.122e-7
-0.018, -1.124e-7
-0.017, -1.159e-7
-0.016, -1.165e-7
-0.015, -1.195e-7
-0.014, -1.193e-7
-0.013, -1.221e-7
-0.012, -1.236e-7
-0.011, -1.256e-7
-0.010, -1.270e-7
-0.009, -1.277e-7
-0.008, -1.302e-7
-0.007, -1.313e-7
-0.006, -1.338e-7
-0.005, -1.326e-7
-0.004, -1.362e-7
-0.003, -1.386e-7
-0.002, -1.395e-7
-0.001, -1.408e-7
0.000, -1.430e-7
0.001, -1.301e-7
0.002, -1.382e-7
0.003, -1.420e-7
0.004, -1.431e-7
0.005, -1.447e-7
0.006, -1.441e-7
0.007, -1.477e-7
0.008, -1.491e-7
0.009, -1.490e-7
0.010, -1.514e-7
0.011, -1.523e-7
0.012, -1.530e-7
0.013, -1.553e-7
0.014, -1.557e-7
0.015, -1.579e-7
0.016, -1.593e-7
0.017, -1.588e-7
0.018, -1.602e-7
0.019, -1.615e-7
0.020, -1.633e-7
0.021, -1.655e-7
0.022, -1.642e-7
0.023, -1.662e-7
0.024, -1.661e-7
0.025, -1.699e-7
0.026, -1.695e-7
0.027, -1.707e-7
0.028, -1.695e-7
0.029, -1.721e-7
0.030, -1.723e-7
0.031, -1.738e-7
0.032, -1.736e-7
0.033, -1.761e-7
0.034, -1.771e-7
0.035, -1.764e-7
0.036, -1.775e-7
0.037, -1.785e-7
0.038, -1.792e-7
0.039, -1.812e-7
0.040, -1.816e-7
0.041, -1.829e-7
0.042, -1.825e-7
0.043, -1.841e-7
0.044, -1.863e-7
0.045, -1.849e-7
0.046, -1.865e-7
0.047, -1.865e-7
0.048, -1.899e-7
0.049, -1.910e-7
0.050, -1.900e-7
0.051, -1.919e-7
0.052, -1.916e-7
0.053, -1.926e-7
0.054, -1.932e-7
0.055, -1.947e-7
0.056, -1.985e-7
0.057, -1.978e-7
0.058, -1.977e-7
0.059, -1.979e-7
0.060, -1.980e-7
0.061, -2.013e-7
0.062, -2.021e-7
0.063, -2.043e-7
0.064, -2.065e-7
0.065, -1.926e-7
0.066, -2.007e-7
0.067, -2.020e-7
0.068, -2.037e-7
0.069, -2.056e-7
0.070, -2.075e-7
0.071, -2.076e-7
0.072, -2.099e-7
0.073, -2.099e-7
0.074, -2.122e-7
0.075, -2.125e-7
0.076, -2.135e-7
0.077, -2.147e-7
0.078, -2.170e-7
0.079, -2.170e-7
0.080, -2.182e-7
0.081, -2.201e-7
0.082, -2.209e-7
0.083, -2.217e-7
0.084, -2.234e-7
0.085, -2.233e-7
0.086, -2.257e-7
0.087, -2.255e-7
0.088, -2.272e-7
0.089, -2.284e-7
0.090, -2.293e-7
0.091, -2.311e-7
0.092, -2.312e-7
0.093, -2.357e-7
0.094, -2.334e-7
0.095, -2.355e-7
0.096, -2.358e-7
0.097, -2.394e-7
0.098, -2.382e-7
0.099, -2.405e-7
0.100, -2.406e-7
0.101, -2.418e-7
0.102, -2.437e-7
0.103, -2.431e-7
0.104, -2.468e-7
0.105, -2.478e-7
0.106, -2.494e-7
0.107, -2.498e-7
0.108, -2.496e-7
0.109, -2.514e-7
0.110, -2.529e-7
0.111, -2.540e-7
0.112, -2.542e-7
0.113, -2.578e-7
0.114, -2.588e-7
0.115, -2.600e-7
0.116, -2.616e-7
0.117, -2.635e-7
0.118, -2.652e-7
0.119, -2.656e-7
0.120, -2.662e-7
0.121, -2.687e-7
0.122, -2.703e-7
0.123, -2.717e-7
0.124, -2.732e-7
0.125, -2.742e-7
0.126, -2.759e-7
0.127, -2.774e-7
0.128, -2.829e-7
0.129, -2.647e-7
0.130, -2.737e-7
0.131, -2.791e-7
0.132, -2.797e-7
0.133, -2.829e-7
0.134, -2.840e-7
0.135, -2.880e-7
0.136, -2.887e-7
0.137, -2.903e-7
0.138, -2.911e-7
0.139, -2.936e-7
0.140, -2.953e-7
0.141, -2.968e-7
0.142, -2.975e-7
0.143, -2.985e-7
0.144, -3.026e-7
0.145, -3.045e-7
0.146, -3.056e-7
0.147, -3.075e-7
0.148, -3.095e-7
0.149, -3.102e-7
0.150, -3.115e-7
0.151, -3.148e-7
0.152, -3.152e-7
0.153, -3.181e-7
0.154, -3.192e-7
0.155, -3.222e-7
0.156, -3.218e-7
0.157, -3.251e-7
0.158, -3.267e-7
0.159, -3.288e-7
0.160, -3.300e-7
0.161, -3.313e-7
0.162, -3.343e-7
0.163, -3.348e-7
0.164, -3.371e-7
0.165, -3.387e-7
0.166, -3.402e-7
0.167, -3.440e-7
0.168, -3.447e-7
0.169, -3.456e-7
0.170, -3.491e-7
0.171, -3.500e-7
0.172, -3.500e-7
0.173, -3.547e-7
0.174, -3.563e-7
0.175, -3.575e-7
0.176, -3.595e-7
0.177, -3.620e-7
0.178, -3.645e-7
0.179, -3.676e-7
0.180, -3.696e-7
0.181, -3.723e-7
0.182, -3.766e-7
0.183, -3.751e-7
0.184, -3.786e-7
0.185, -3.809e-7
0.186, -3.829e-7
0.187, -3.833e-7
0.188, -3.862e-7
0.189, -3.901e-7
0.190, -3.920e-7
0.191, -3.941e-7
0.192, -3.989e-7
0.193, -3.834e-7
0.194, -3.920e-7
0.195, -3.979e-7
0.196, -3.990e-7
0.197, -4.048e-7
0.198, -4.059e-7
0.199, -4.084e-7
0.200, -4.113e-7
0.201, -4.144e-7
0.202, -4.162e-7
0.203, -4.197e-7
0.204, -4.231e-7
0.205, -4.250e-7
0.206, -4.273e-7
0.207, -4.303e-7
0.208, -4.347e-7
0.209, -4.368e-7
0.210, -4.394e-7
0.211, -4.422e-7
0.212, -4.456e-7
0.213, -4.460e-7
0.214, -4.516e-7
0.215, -4.547e-7
0.216, -4.579e-7
0.217, -4.592e-7
0.218, -4.637e-7
0.219, -4.649e-7
0.220, -4.694e-7
0.221, -4.721e-7
0.222, -4.746e-7
0.223, -4.792e-7
0.224, -4.801e-7
0.225, -4.858e-7
0.226, -4.862e-7
0.227, -4.912e-7
0.228, -4.937e-7
0.229, -4.949e-7
0.230, -4.985e-7
0.231, -5.024e-7
0.232, -5.067e-7
0.233, -5.092e-7
0.234, -5.134e-7
0.235, -5.167e-7
0.236, -5.205e-7
0.237, -5.243e-7
0.238, -5.269e-7
0.239, -5.327e-7
0.240, -5.340e-7
0.241, -5.391e-7
0.242, -5.427e-7
0.243, -5.447e-7
0.244, -5.491e-7
0.245, -5.537e-7
0.246, -5.566e-7
0.247, -5.622e-7
0.248, -5.654e-7
0.249, -5.699e-7
0.250, -5.750e-7
0.251, -5.770e-7
0.252, -5.827e-7
0.253, -5.898e-7
0.254, -5.942e-7
0.255, -6.005e-7
0.256, -6.051e-7
0.257, -5.853e-7
0.258, -6.035e-7
0.259, -6.090e-7
0.260, -6.155e-7
0.261, -6.225e-7
0.262, -6.274e-7
0.263, -6.310e-7
0.264, -6.378e-7
0.265, -6.429e-7
0.266, -6.477e-7
0.267, -6.525e-7
0.268, -6.569e-7
0.269, -6.665e-7
0.270, -6.712e-7
0.271, -6.780e-7
0.272, -6.861e-7
0.273, -6.930e-7
0.274, -6.955e-7
0.275, -7.011e-7
0.276, -7.105e-7
0.277, -7.128e-7
0.278, -7.221e-7
0.279, -7.299e-7
0.280, -7.335e-7
0.281, -7.414e-7
0.282, -7.427e-7
0.283, -7.548e-7
0.284, -7.614e-7
0.285, -7.698e-7
0.286, -7.751e-7
0.287, -7.812e-7
0.288, -7.892e-7
0.289, -7.933e-7
0.290, -7.989e-7
0.291, -8.083e-7
0.292, -8.149e-7
0.293, -8.216e-7
0.294, -8.296e-7
0.295, -8.373e-7
0.296, -8.444e-7
0.297, -8.514e-7
0.298, -8.609e-7
0.299, -8.690e-7
0.300, -8.742e-7
0.301, -8.798e-7
0.302, -8.892e-7
0.303, -8.975e-7
0.304, -9.053e-7
0.305, -9.169e-7
0.306, -9.211e-7
0.307, -9.292e-7
0.308, -9.403e-7
0.309, -9.453e-7
0.310, -9.551e-7
0.311, -9.638e-7
0.312, -9.710e-7
0.313, -9.811e-7
0.314, -9.895e-7
0.315, -9.975e-7
0.316, -1.009e-6
0.317, -1.016e-6
0.318, -1.026e-6
0.319, -1.035e-6
0.320, -1.043e-6
0.321, -1.031e-6
0.322, -1.047e-6
0.323, -1.059e-6
0.324, -1.073e-6
0.325, -1.079e-6
0.326, -1.089e-6
0.327, -1.098e-6
0.328, -1.106e-6
0.329, -1.115e-6
0.330, -1.127e-6
0.331, -1.136e-6
0.332, -1.143e-6
0.333, -1.156e-6
0.334, -1.165e-6
0.335, -1.173e-6
0.336, -1.183e-6
0.337, -1.190e-6
0.338, -1.197e-6
0.339, -1.209e-6
0.340, -1.215e-6
0.341, -1.225e-6
0.342, -1.233e-6
0.343, -1.243e-6
0.344, -1.249e-6
0.345, -1.255e-6
0.346, -1.262e-6
0.347, -1.269e-6
0.348, -1.276e-6
0.349, -1.283e-6
0.350, -1.289e-6
0.351, -1.298e-6
0.352, -1.303e-6
0.353, -1.312e-6
0.354, -1.316e-6
0.355, -1.325e-6
0.356, -1.328e-6
0.357, -1.334e-6
0.358, -1.336e-6
0.359, -1.345e-6
0.360, -1.346e-6
0.361, -1.352e-6
0.362, -1.356e-6
0.363, -1.362e-6
0.364, -1.367e-6
0.365, -1.370e-6
0.366, -1.374e-6
0.367, -1.379e-6
0.368, -1.382e-6
0.369, -1.389e-6
0.370, -1.393e-6
0.371, -1.395e-6
0.372, -1.399e-6
0.373, -1.400e-6
0.374, -1.403e-6
0.375, -1.406e-6
0.376, -1.410e-6
0.377, -1.412e-6
0.378, -1.413e-6
0.379, -1.417e-6
0.380, -1.417e-6
0.381, -1.421e-6
0.382, -1.423e-6
0.383, -1.422e-6
0.384, -1.428e-6
0.385, -1.401e-6
0.386, -1.408e-6
0.387, -1.411e-6
0.388, -1.417e-6
0.389, -1.415e-6
0.390, -1.415e-6
0.391, -1.418e-6
0.392, -1.418e-6
0.393, -1.417e-6
0.394, -1.416e-6
0.395, -1.416e-6
0.396, -1.416e-6
0.397, -1.417e-6
0.398, -1.417e-6
0.399, -1.416e-6
0.400, -1.416e-6
0.401, -1.413e-6
0.402, -1.414e-6
0.403, -1.413e-6
0.404, -1.412e-6
0.405, -1.414e-6
0.406, -1.412e-6
0.407, -1.411e-6
0.408, -1.409e-6
0.409, -1.406e-6
0.410, -1.406e-6
0.411, -1.407e-6
0.412, -1.405e-6
0.413, -1.405e-6
0.414, -1.404e-6
0.415, -1.402e-6
0.416, -1.400e-6
0.417, -1.401e-6
0.418, -1.397e-6
0.419, -1.398e-6
0.420, -1.395e-6
0.421, -1.395e-6
0.422, -1.395e-6
0.423, -1.393e-6
0.424, -1.388e-6
0.425, -1.387e-6
0.426, -1.391e-6
0.427, -1.384e-6
0.428, -1.384e-6
0.429, -1.387e-6
0.430, -1.386e-6
0.431, -1.381e-6
0.432, -1.383e-6
0.433, -1.380e-6
0.434, -1.380e-6
0.435, -1.378e-6
0.436, -1.377e-6
0.437, -1.377e-6
0.438, -1.376e-6
0.439, -1.376e-6
0.440, -1.374e-6
0.441, -1.374e-6
0.442, -1.373e-6
0.443, -1.371e-6
0.444, -1.373e-6
0.445, -1.374e-6
0.446, -1.372e-6
0.447, -1.373e-6
0.448, -1.374e-6
0.449, -1.349e-6
0.450, -1.356e-6
0.451, -1.360e-6
0.452, -1.360e-6
0.453, -1.363e-6
0.454, -1.362e-6
0.455, -1.361e-6
0.456, -1.362e-6
0.457, -1.361e-6
0.458, -1.362e-6
0.459, -1.364e-6
0.460, -1.363e-6
0.461, -1.360e-6
0.462, -1.365e-6
0.463, -1.363e-6
0.464, -1.363e-6
0.465, -1.364e-6
0.466, -1.365e-6
0.467, -1.366e-6
0.468, -1.366e-6
0.469, -1.366e-6
0.470, -1.367e-6
0.471, -1.366e-6
0.472, -1.365e-6
0.473, -1.371e-6
0.474, -1.368e-6
0.475, -1.369e-6
0.476, -1.370e-6
0.477, -1.370e-6
0.478, -1.372e-6
0.479, -1.371e-6
0.480, -1.372e-6
0.481, -1.375e-6
0.482, -1.375e-6
0.483, -1.376e-6
0.484, -1.376e-6
0.485, -1.376e-6
0.486, -1.377e-6
0.487, -1.378e-6
0.488, -1.381e-6
0.489, -1.381e-6
0.490, -1.382e-6
0.491, -1.382e-6
0.492, -1.385e-6
0.493, -1.384e-6
0.494, -1.386e-6
0.495, -1.390e-6
0.496, -1.388e-6
0.497, -1.391e-6
0.498, -1.393e-6
0.499, -1.395e-6
0.500, -1.398e-6
0.499, -1.399e-6
0.498, -1.143e-6
0.497, -1.025e-6
0.496, -9.563e-7
0.495, -9.052e-7
0.494, -8.611e-7
0.493, -8.227e-7
0.492, -7.895e-7
0.491, -7.574e-7
0.490, -7.248e-7
0.489, -7.000e-7
0.488, -6.721e-7
0.487, -6.498e-7
0.486, -6.236e-7
0.485, -6.033e-7
0.484, -5.816e-7
0.483, -5.644e-7
0.482, -5.480e-7
0.481, -5.306e-7
0.480, -5.153e-7
0.479, -4.969e-7
0.478, -4.821e-7
0.477, -4.720e-7
0.476, -4.552e-7
0.475, -4.428e-7
0.474, -4.266e-7
0.473, -4.136e-7
0.472, -4.015e-7
0.471, -3.885e-7
0.470, -3.769e-7
0.469, -3.637e-7
0.468, -3.541e-7
0.467, -3.425e-7
0.466, -3.296e-7
0.465, -3.184e-7
0.464, -3.112e-7
0.463, -3.012e-7
0.462, -2.924e-7
0.461, -2.808e-7
0.460, -2.698e-7
0.459, -2.623e-7
0.458, -2.530e-7
0.457, -2.459e-7
0.456, -2.343e-7
0.455, -2.290e-7
0.454, -2.223e-7
0.453, -2.135e-7
0.452, -2.067e-7
0.451, -1.993e-7
0.450, -1.911e-7
0.449, -1.857e-7
0.448, -1.779e-7
0.447, -1.725e-7
0.446, -1.849e-7
0.445, -1.597e-7
0.444, -1.484e-7
0.443, -1.437e-7
0.442, -1.330e-7
0.441, -1.298e-7
0.440, -1.206e-7
0.439, -1.156e-7
0.438, -1.051e-7
0.437, -1.014e-7
0.436, -9.724e-8
0.435, -9.175e-8
0.434, -8.345e-8
0.433, -7.652e-8
0.432, -7.018e-8
0.431, -6.656e-8
0.430, -5.916e-8
0.429, -5.579e-8
0.428, -4.446e-8
0.427, -3.925e-8
0.426, -3.495e-8
0.425, -2.713e-8
0.424, -2.189e-8
0.423, -1.690e-8
0.422, -1.134e-8
0.421, -5.291e-9
0.420, 5.422e-10
0.419, 7.845e-9
0.418, 1.082e-8
0.417, 1.955e-8
0.416, 2.497e-8
0.415, 3.398e-8
0.414, 4.136e-8
0.413, 4.617e-8
0.412, 4.983e-8
0.411, 5.856e-8
0.410, 6.268e-8
0.409, 7.072e-8
0.408, 7.634e-8
0.407, 8.010e-8
0.406, 9.008e-8
0.405, 9.384e-8
0.404, 1.009e-7
0.403, 1.115e-7
0.402, 1.155e-7
0.401, 1.231e-7
0.400, 1.291e-7
0.399, 1.336e-7
0.398, 1.414e-7
0.397, 1.456e-7
0.396, 1.548e-7
0.395, 1.621e-7
0.394, 1.688e-7
0.393, 1.773e-7
0.392, 1.826e-7
0.391, 1.894e-7
0.390, 1.968e-7
0.389, 2.030e-7
0.388, 2.098e-7
0.387, 2.146e-7
0.386, 2.192e-7
0.385, 2.248e-7
0.384, 2.287e-7
0.383, 2.343e-7
0.382, 2.224e-7
0.381, 2.422e-7
0.380, 2.539e-7
0.379, 2.620e-7
0.378, 2.699e-7
0.377, 2.744e-7
0.376, 2.819e-7
0.375, 2.884e-7
0.374, 2.964e-7
0.373, 3.031e-7
0.372, 3.080e-7
0.371, 3.142e-7
0.370, 3.238e-7
0.369, 3.319e-7
0.368, 3.359e-7
0.367, 3.480e-7
0.366, 3.549e-7
0.365, 3.647e-7
0.364, 3.732e-7
0.363, 3.810e-7
0.362, 3.938e-7
0.361, 4.009e-7
0.360, 4.077e-7
0.359, 4.237e-7
0.358, 4.300e-7
0.357, 4.428e-7
0.356, 4.492e-7
0.355, 4.567e-7
0.354, 4.693e-7
0.353, 4.775e-7
0.352, 4.848e-7
0.351, 4.999e-7
0.350, 5.067e-7
0.349, 5.187e-7
0.348, 5.270e-7
0.347, 5.359e-7
0.346, 5.474e-7
0.345, 5.580e-7
0.344, 5.652e-7
0.343, 5.753e-7
0.342, 5.832e-7
0.341, 5.933e-7
0.340, 6.018e-7
0.339, 6.089e-7
0.338, 6.192e-7
0.337, 6.276e-7
0.336, 6.368e-7
0.335, 6.413e-7
0.334, 6.546e-7
0.333, 6.595e-7
0.332, 6.677e-7
0.331, 6.769e-7
0.330, 6.854e-7
0.329, 6.929e-7
0.328, 7.017e-7
0.327, 7.080e-7
0.326, 7.135e-7
0.325, 7.196e-7
0.324, 7.269e-7
0.323, 7.367e-7
0.322, 7.379e-7
0.321, 7.479e-7
0.320, 7.524e-7
0.319, 7.579e-7
0.318, 7.409e-7
0.317, 7.661e-7
0.316, 7.770e-7
0.315, 7.834e-7
0.314, 7.879e-7
0.313, 7.970e-7
0.312, 8.026e-7
0.311, 8.078e-7
0.310, 8.130e-7
0.309, 8.181e-7
0.308, 8.224e-7
0.307, 8.272e-7
0.306, 8.314e-7
0.305, 8.378e-7
0.304, 8.402e-7
0.303, 8.451e-7
0.302, 8.491e-7
0.301, 8.516e-7
0.300, 8.540e-7
0.299, 8.600e-7
0.298, 8.617e-7
0.297, 8.654e-7
0.296, 8.680e-7
0.295, 8.690e-7
0.294, 8.745e-7
0.293, 8.751e-7
0.292, 8.791e-7
0.291, 8.811e-7
0.290, 8.832e-7
0.289, 8.807e-7
0.288, 8.871e-7
0.287, 8.874e-7
0.286, 8.931e-7
0.285, 8.918e-7
0.284, 8.915e-7
0.283, 8.950e-7
0.282, 8.935e-7
0.281, 8.945e-7
0.280, 8.984e-7
0.279, 8.988e-7
0.278, 8.987e-7
0.277, 8.942e-7
0.276, 8.962e-7
0.275, 8.982e-7
0.274, 9.000e-7
0.273, 9.004e-7
0.272, 9.020e-7
0.271, 9.008e-7
0.270, 9.006e-7
0.269, 9.005e-7
0.268, 9.013e-7
0.267, 8.982e-7
0.266, 9.010e-7
0.265, 8.976e-7
0.264, 8.973e-7
0.263, 8.979e-7
0.262, 8.991e-7
0.261, 8.959e-7
0.260, 8.949e-7
0.259, 8.938e-7
0.258, 8.950e-7
0.257, 8.921e-7
0.256, 8.899e-7
0.255, 8.894e-7
0.254, 8.689e-7
0.253, 8.825e-7
0.252, 8.846e-7
0.251, 8.862e-7
0.250, 8.830e-7
0.249, 8.838e-7
0.248, 8.853e-7
0.247, 8.801e-7
0.246, 8.836e-7
0.245, 8.799e-7
0.244, 8.784e-7
0.243, 8.780e-7
0.242, 8.789e-7
0.241, 8.765e-7
0.240, 8.729e-7
0.239, 8.743e-7
0.238, 8.735e-7
0.237, 8.712e-7
0.236, 8.716e-7
0.235, 8.691e-7
0.234, 8.673e-7
0.233, 8.672e-7
0.232, 8.629e-7
0.231, 8.637e-7
0.230, 8.615e-7
0.229, 8.624e-7
0.228, 8.600e-7
0.227, 8.579e-7
0.226, 8.556e-7
0.225, 8.570e-7
0.224, 8.544e-7
0.223, 8.533e-7
0.222, 8.521e-7
0.221, 8.498e-7
0.220, 8.507e-7
0.219, 8.486e-7
0.218, 8.471e-7
0.217, 8.444e-7
0.216, 8.446e-7
0.215, 8.411e-7
0.214, 8.407e-7
0.213, 8.393e-7
0.212, 8.387e-7
0.211, 8.369e-7
0.210, 8.352e-7
0.209, 8.334e-7
0.208, 8.314e-7
0.207, 8.296e-7
0.206, 8.298e-7
0.205, 8.276e-7
0.204, 8.246e-7
0.203, 8.257e-7
0.202, 8.231e-7
0.201, 8.219e-7
0.200, 8.191e-7
0.199, 8.176e-7
0.198, 8.160e-7
0.197, 8.146e-7
0.196, 8.098e-7
0.195, 8.104e-7
0.194, 8.081e-7
0.193, 8.068e-7
0.192, 8.044e-7
0.191, 8.011e-7
0.190, 7.853e-7
0.189, 7.996e-7
0.188, 7.965e-7
0.187, 7.976e-7
0.186, 7.975e-7
0.185, 7.950e-7
0.184, 7.940e-7
0.183, 7.938e-7
0.182, 7.897e-7
0.181, 7.890e-7
0.180, 7.887e-7
0.179, 7.862e-7
0.178, 7.834e-7
0.177, 7.840e-7
0.176, 7.812e-7
0.175, 7.808e-7
0.174, 7.808e-7
0.173, 7.762e-7
0.172, 7.767e-7
0.171, 7.745e-7
0.170, 7.736e-7
0.169, 7.706e-7
0.168, 7.698e-7
0.167, 7.703e-7
0.166, 7.676e-7
0.165, 7.647e-7
0.164, 7.657e-7
0.163, 7.630e-7
0.162, 7.610e-7
0.161, 7.596e-7
0.160, 7.616e-7
0.159, 7.564e-7
0.158, 7.562e-7
0.157, 7.554e-7
0.156, 7.544e-7
0.155, 7.524e-7
0.154, 7.498e-7
0.153, 7.510e-7
0.152, 7.504e-7
0.151, 7.470e-7
0.150, 7.450e-7
0.149, 7.429e-7
0.148, 7.422e-7
0.147, 7.404e-7
0.146, 7.403e-7
0.145, 7.399e-7
0.144, 7.376e-7
0.143, 7.356e-7
0.142, 7.327e-7
0.141, 7.330e-7
0.140, 7.330e-7
0.139, 7.297e-7
0.138, 7.280e-7
0.137, 7.281e-7
0.136, 7.251e-7
0.135, 7.253e-7
0.134, 7.223e-7
0.133, 7.223e-7
0.132, 7.202e-7
0.131, 7.171e-7
0.130, 7.170e-7
0.129, 7.144e-7
0.128, 7.138e-7
0.127, 7.119e-7
0.126, 6.935e-7
0.125, 7.064e-7
0.124, 7.079e-7
0.123, 7.059e-7
0.122, 7.073e-7
0.121, 7.064e-7
0.120, 7.044e-7
0.119, 7.025e-7
0.118, 7.019e-7
0.117, 7.009e-7
0.116, 6.995e-7
0.115, 6.972e-7
0.114, 6.969e-7
0.113, 6.949e-7
0.112, 6.922e-7
0.111, 6.931e-7
0.110, 6.914e-7
0.109, 6.907e-7
0.108, 6.885e-7
0.107, 6.874e-7
0.106, 6.874e-7
0.105, 6.861e-7
0.104, 6.837e-7
0.103, 6.835e-7
0.102, 6.812e-7
0.101, 6.789e-7
0.100, 6.816e-7
0.099, 6.781e-7
0.098, 6.788e-7
0.097, 6.761e-7
0.096, 6.746e-7
0.095, 6.711e-7
0.094, 6.741e-7
0.093, 6.720e-7
0.092, 6.708e-7
0.091, 6.687e-7
0.090, 6.678e-7
0.089, 6.662e-7
0.088, 6.639e-7
0.087, 6.646e-7
0.086, 6.621e-7
0.085, 6.635e-7
0.084, 6.607e-7
0.083, 6.587e-7
0.082, 6.580e-7
0.081, 6.583e-7
0.080, 6.552e-7
0.079, 6.554e-7
0.078, 6.550e-7
0.077, 6.517e-7
0.076, 6.510e-7
0.075, 6.511e-7
0.074, 6.507e-7
0.073, 6.490e-7
0.072, 6.475e-7
0.071, 6.463e-7
0.070, 6.419e-7
0.069, 6.425e-7
0.068, 6.419e-7
0.067, 6.405e-7
0.066, 6.372e-7
0.065, 6.367e-7
0.064, 6.366e-7
0.063, 6.349e-7
0.062, 6.207e-7
0.061, 6.298e-7
0.060, 6.296e-7
0.059, 6.314e-7
0.058, 6.311e-7
0.057, 6.295e-7
0.056, 6.266e-7
0.055, 6.260e-7
0.054, 6.241e-7
0.053, 6.245e-7
0.052, 6.243e-7
0.051, 6.227e-7
0.050, 6.214e-7
0.049, 6.217e-7
0.048, 6.204e-7
0.047, 6.174e-7
0.046, 6.166e-7
0.045, 6.163e-7
0.044, 6.142e-7
0.043, 6.146e-7
0.042, 6.122e-7
0.041, 6.130e-7
0.040, 6.118e-7
0.039, 6.111e-7
0.038, 6.104e-7
0.037, 6.071e-7
0.036, 6.076e-7
0.035, 6.074e-7
0.034, 6.049e-7
0.033, 6.065e-7
0.032, 6.051e-7
0.031, 6.048e-7
0.030, 6.037e-7
0.029, 6.011e-7
0.028, 6.012e-7
0.027, 6.012e-7
0.026, 5.995e-7
0.025, 5.996e-7
0.024, 5.996e-7
0.023, 5.975e-7
0.022, 5.955e-7
0.021, 5.959e-7
0.020, 5.964e-7
0.019, 5.954e-7
0.018, 5.942e-7
0.017, 5.936e-7
0.016, 5.936e-7
0.015, 5.924e-7
0.014, 5.921e-7
0.013, 5.912e-7
0.012, 5.894e-7
0.011, 5.908e-7
0.010, 5.890e-7
0.009, 5.901e-7
0.008, 5.886e-7
0.007, 5.877e-7
0.006, 5.873e-7
0.005, 5.857e-7
0.004, 5.868e-7
0.003, 5.862e-7
0.002, 5.861e-7
0.001, 5.832e-7
0.000, 5.828e-7
-0.001, 5.819e-7
-0.002, 5.680e-7
-0.003, 5.800e-7
-0.004, 5.826e-7
-0.005, 5.817e-7
-0.006, 5.817e-7
-0.007, 5.818e-7
-0.008, 5.810e-7
-0.009, 5.816e-7
-0.010, 5.834e-7
-0.011, 5.810e-7
-0.012, 5.812e-7
-0.013, 5.817e-7
-0.014, 5.826e-7
-0.015, 5.815e-7
-0.016, 5.821e-7
-0.017, 5.816e-7
-0.018, 5.812e-7
-0.019, 5.813e-7
-0.020, 5.829e-7
-0.021, 5.821e-7
-0.022, 5.830e-7
-0.023, 5.811e-7
-0.024, 5.812e-7
-0.025, 5.828e-7
-0.026, 5.809e-7
-0.027, 5.825e-7
-0.028, 5.827e-7
-0.029, 5.833e-7
-0.030, 5.825e-7
-0.031, 5.838e-7
-0.032, 5.841e-7
-0.033, 5.842e-7
-0.034, 5.857e-7
-0.035, 5.849e-7
-0.036, 5.867e-7
-0.037, 5.853e-7
-0.038, 5.867e-7
-0.039, 5.871e-7
-0.040, 5.877e-7
-0.041, 5.876e-7
-0.042, 5.894e-7
-0.043, 5.890e-7
-0.044, 5.911e-7
-0.045, 5.917e-7
-0.046, 5.916e-7
-0.047, 5.927e-7
-0.048, 5.934e-7
-0.049, 5.939e-7
-0.050, 5.947e-7
-0.051, 5.956e-7
-0.052, 5.963e-7
-0.053, 5.974e-7
-0.054, 5.992e-7
-0.055, 5.986e-7
-0.056, 5.996e-7
-0.057, 6.014e-7
-0.058, 6.032e-7
-0.059, 6.026e-7
-0.060, 6.034e-7
-0.061, 6.059e-7
-0.062, 6.066e-7
-0.063, 6.067e-7
-0.064, 6.078e-7
-0.065, 6.095e-7
-0.066, 5.984e-7
-0.067, 6.088e-7
-0.068, 6.122e-7
-0.069, 6.150e-7
-0.070, 6.163e-7
-0.071, 6.175e-7
-0.072, 6.179e-7
-0.073, 6.230e-7
-0.074, 6.237e-7
-0.075, 6.251e-7
-0.076, 6.276e-7
-0.077, 6.287e-7
-0.078, 6.301e-7
-0.079, 6.322e-7
-0.080, 6.340e-7
-0.081, 6.367e-7
-0.082, 6.387e-7
-0.083, 6.403e-7
-0.084, 6.427e-7
-0.085, 6.440e-7
-0.086, 6.459e-7
-0.087, 6.481e-7
-0.088, 6.514e-7
-0.089, 6.541e-7
-0.090, 6.565e-7
-0.091, 6.580e-7
-0.092, 6.616e-7
-0.093, 6.641e-7
-0.094, 6.668e-7
-0.095, 6.680e-7
-0.096, 6.719e-7
-0.097, 6.733e-7
-0.098, 6.758e-7
-0.099, 6.820e-7
-0.100, 6.826e-7
